50.427,1594204503.000,39.994139,-0.068957,143.000,0.000,44.0,0.5,6,5
50.461,1594204503.000,39.994139,-0.068957,143.000,0.000,44.0,0.5,6,5
51.393,1594204504.000,39.994140,-0.068978,147.000,0.000,39.0,0.1,6,4
51.420,1594204504.000,39.994140,-0.068978,147.000,0.000,39.0,0.1,6,4
52.403,1594204505.000,39.994068,-0.069031,149.000,0.000,32.0,0.4,6,4
52.431,1594204505.000,39.994068,-0.069031,149.000,0.000,32.0,0.4,6,4
53.380,1594204506.000,39.994031,-0.069068,143.000,262.800,30.0,0.7,6,4
53.392,1594204506.000,39.994031,-0.069068,143.000,262.800,30.0,0.7,6,4
54.404,1594204507.000,39.994029,-0.069076,140.000,257.800,34.0,1.0,6,5
54.419,1594204507.000,39.994029,-0.069076,140.000,257.800,34.0,1.0,6,5
55.412,1594204508.000,39.994028,-0.069073,140.000,246.700,32.0,0.7,6,5
55.419,1594204508.000,39.994028,-0.069073,140.000,246.700,32.0,0.7,6,5
56.424,1594204509.000,39.994027,-0.069072,138.000,243.000,34.0,0.6,6,5
56.439,1594204509.000,39.994027,-0.069072,138.000,243.000,34.0,0.6,6,5
80.417,1594204533.000,39.994302,-0.069400,131.000,338.200,33.0,1.1,7,5
80.430,1594204533.000,39.994302,-0.069400,131.000,338.200,33.0,1.1,7,5
81.412,1594204534.000,39.994288,-0.069420,129.000,339.200,35.0,1.0,7,4
81.425,1594204534.000,39.994288,-0.069420,129.000,339.200,35.0,1.0,7,4
82.421,1594204535.000,39.994288,-0.069453,128.000,337.300,38.0,1.4,7,4
82.428,1594204535.000,39.994288,-0.069453,128.000,337.300,38.0,1.4,7,4
83.399,1594204536.000,39.994319,-0.069480,127.000,337.700,36.0,2.1,7,4
83.418,1594204536.000,39.994319,-0.069480,127.000,337.700,36.0,2.1,7,4
84.407,1594204537.000,39.994328,-0.069486,126.000,345.700,35.0,1.6,7,4
84.419,1594204537.000,39.994328,-0.069486,126.000,345.700,35.0,1.6,7,4
85.418,1594204538.000,39.994330,-0.069500,126.000,344.800,36.0,1.1,7,5
85.425,1594204538.000,39.994330,-0.069500,126.000,344.800,36.0,1.1,7,5
86.382,1594204539.000,39.994358,-0.069484,124.000,347.300,36.0,1.4,7,4
86.407,1594204539.000,39.994358,-0.069484,124.000,347.300,36.0,1.4,7,4
87.418,1594204540.000,39.994346,-0.069521,125.000,335.900,33.0,1.7,8,4
87.427,1594204540.000,39.994346,-0.069521,125.000,335.900,33.0,1.7,8,4
88.382,1594204541.000,39.994351,-0.069505,128.000,338.900,34.0,0.8,8,4
88.397,1594204541.000,39.994351,-0.069505,128.000,338.900,34.0,0.8,8,4
89.392,1594204542.000,39.994357,-0.069526,128.000,339.400,35.0,0.4,8,4
89.406,1594204542.000,39.994357,-0.069526,128.000,339.400,35.0,0.4,8,4
90.376,1594204543.000,39.994354,-0.069534,129.000,339.900,39.0,0.6,7,4
90.383,1594204543.000,39.994354,-0.069534,129.000,339.900,39.0,0.6,7,4
165.359,1594204618.000,39.993760,-0.069278,155.000,145.000,95.0,1.9,6,4
165.384,1594204618.000,39.993760,-0.069278,155.000,145.000,95.0,1.9,6,4
166.337,1594204619.000,39.993729,-0.069281,161.000,105.000,38.0,2.7,6,4
166.352,1594204619.000,39.993729,-0.069281,161.000,105.000,38.0,2.7,6,4
168.355,1594204621.000,39.993754,-0.069235,164.000,62.100,54.0,1.8,6,4
168.371,1594204621.000,39.993754,-0.069235,164.000,62.100,54.0,1.8,6,4
169.356,1594204622.000,39.993793,-0.069197,173.000,34.200,56.0,4.5,6,4
169.376,1594204622.000,39.993793,-0.069197,173.000,34.200,56.0,4.5,6,4
170.355,1594204623.000,39.993849,-0.069179,175.000,17.000,55.0,5.0,6,4
170.363,1594204623.000,39.993849,-0.069179,175.000,17.000,55.0,5.0,6,4
288.376,1594204741.000,39.993959,-0.069487,108.000,72.400,32.0,1.4,6,5
288.421,1594204741.000,39.993959,-0.069487,108.000,72.400,32.0,1.4,6,5
289.383,1594204742.000,39.993964,-0.069468,113.000,77.000,36.0,1.4,5,5
289.404,1594204742.000,39.993964,-0.069468,113.000,77.000,36.0,1.4,5,5
290.401,1594204743.000,39.993982,-0.069383,116.000,78.500,25.0,1.5,4,4
290.422,1594204743.000,39.993982,-0.069383,116.000,78.500,25.0,1.5,4,4
291.385,1594204744.000,39.993985,-0.069370,123.000,82.100,29.0,0.8,5,5
291.414,1594204744.000,39.993985,-0.069370,123.000,82.100,29.0,0.8,5,5
292.408,1594204745.000,39.993987,-0.069348,125.000,84.900,27.0,1.0,5,5
292.418,1594204745.000,39.993987,-0.069348,125.000,84.900,27.0,1.0,5,5
293.402,1594204746.000,39.993983,-0.069335,126.000,88.000,28.0,1.0,8,5
293.416,1594204746.000,39.993983,-0.069335,126.000,88.000,28.0,1.0,8,5
294.413,1594204747.000,39.993987,-0.069316,128.000,88.500,32.0,1.0,8,5
294.421,1594204747.000,39.993987,-0.069316,128.000,88.500,32.0,1.0,8,5
295.400,1594204748.000,39.993998,-0.069285,131.000,88.900,32.0,1.1,8,5
295.417,1594204748.000,39.993998,-0.069285,131.000,88.900,32.0,1.1,8,5
296.392,1594204749.000,39.993998,-0.069274,133.000,94.800,32.0,0.7,8,5
296.412,1594204749.000,39.993998,-0.069274,133.000,94.800,32.0,0.7,8,5
297.409,1594204750.000,39.993998,-0.069279,133.000,92.000,35.0,0.1,8,5
297.415,1594204750.000,39.993998,-0.069279,133.000,92.000,35.0,0.1,8,5
298.415,1594204751.000,39.993991,-0.069280,132.000,93.600,37.0,0.4,8,5
298.422,1594204751.000,39.993991,-0.069280,132.000,93.600,37.0,0.4,8,5
299.429,1594204752.000,39.993992,-0.069279,132.000,88.800,36.0,0.6,8,5
299.434,1594204752.000,39.993992,-0.069279,132.000,88.800,36.0,0.6,8,5
300.438,1594204753.000,39.993985,-0.069281,132.000,87.900,40.0,0.1,8,5
300.446,1594204753.000,39.993985,-0.069281,132.000,87.900,40.0,0.1,8,5
301.457,1594204754.000,39.993979,-0.069291,130.000,87.600,40.0,0.2,9,5
301.463,1594204754.000,39.993979,-0.069291,130.000,87.600,40.0,0.2,9,5
302.392,1594204755.000,39.993981,-0.069285,130.000,88.000,41.0,0.5,9,5
302.402,1594204755.000,39.993981,-0.069285,130.000,88.000,41.0,0.5,9,5
303.398,1594204756.000,39.993986,-0.069286,129.000,79.300,41.0,0.6,9,5
303.423,1594204756.000,39.993986,-0.069286,129.000,79.300,41.0,0.6,9,5
304.381,1594204757.000,39.993989,-0.069296,128.000,66.800,40.0,0.6,7,5
304.396,1594204757.000,39.993989,-0.069296,128.000,66.800,40.0,0.6,7,5
305.401,1594204758.000,39.993994,-0.069306,127.000,52.800,41.0,0.8,7,5
305.410,1594204758.000,39.993994,-0.069306,127.000,52.800,41.0,0.8,7,5
306.395,1594204759.000,39.993994,-0.069309,126.000,50.700,42.0,0.5,7,5
306.400,1594204759.000,39.993994,-0.069309,126.000,50.700,42.0,0.5,7,5
307.388,1594204760.000,39.994014,-0.069292,124.000,48.500,37.0,0.4,7,5
307.396,1594204760.000,39.994014,-0.069292,124.000,48.500,37.0,0.4,7,5
308.392,1594204761.000,39.994020,-0.069283,124.000,46.400,35.0,0.4,8,5
308.397,1594204761.000,39.994020,-0.069283,124.000,46.400,35.0,0.4,8,5
309.380,1594204762.000,39.994036,-0.069266,125.000,41.300,39.0,0.5,8,5
309.389,1594204762.000,39.994036,-0.069266,125.000,41.300,39.0,0.5,8,5
310.405,1594204763.000,39.994043,-0.069263,127.000,30.100,40.0,0.8,8,5
310.412,1594204763.000,39.994043,-0.069263,127.000,30.100,40.0,0.8,8,5
311.376,1594204764.000,39.994045,-0.069261,127.000,26.900,42.0,0.4,10,5
311.391,1594204764.000,39.994045,-0.069261,127.000,26.900,42.0,0.4,10,5
312.418,1594204765.000,39.994053,-0.069253,127.000,22.700,42.0,0.5,9,5
312.426,1594204765.000,39.994053,-0.069253,127.000,22.700,42.0,0.5,9,5
313.422,1594204766.000,39.994056,-0.069245,126.000,22.000,40.0,0.8,10,5
313.432,1594204766.000,39.994056,-0.069245,126.000,22.000,40.0,0.8,10,5
314.453,1594204767.000,39.994064,-0.069236,127.000,17.600,39.0,0.8,10,5
314.461,1594204767.000,39.994064,-0.069236,127.000,17.600,39.0,0.8,10,5
315.394,1594204768.000,39.994077,-0.069228,128.000,14.200,37.0,0.5,10,5
315.411,1594204768.000,39.994077,-0.069228,128.000,14.200,37.0,0.5,10,5
316.386,1594204769.000,39.994089,-0.069217,129.000,10.900,36.0,0.3,9,5
316.391,1594204769.000,39.994089,-0.069217,129.000,10.900,36.0,0.3,9,5
317.403,1594204770.000,39.994089,-0.069242,128.000,7.700,35.0,0.3,9,5
317.413,1594204770.000,39.994089,-0.069242,128.000,7.700,35.0,0.3,9,5
318.398,1594204771.000,39.994090,-0.069259,127.000,0.000,37.0,0.0,9,5
318.403,1594204771.000,39.994090,-0.069259,127.000,0.000,37.0,0.0,9,5
319.396,1594204772.000,39.994084,-0.069263,126.000,16.900,40.0,0.2,8,5
319.408,1594204772.000,39.994084,-0.069263,126.000,16.900,40.0,0.2,8,5
320.410,1594204773.000,39.994028,-0.069242,124.000,16.000,35.0,0.3,7,4
320.420,1594204773.000,39.994028,-0.069242,124.000,16.000,35.0,0.3,7,4
321.385,1594204774.000,39.994031,-0.069237,124.000,16.700,35.0,0.2,7,5
321.396,1594204774.000,39.994031,-0.069237,124.000,16.700,35.0,0.2,7,5
322.383,1594204775.000,39.994032,-0.069230,124.000,0.000,34.0,0.0,6,5
322.388,1594204775.000,39.994032,-0.069230,124.000,0.000,34.0,0.0,6,5
323.360,1594204776.000,39.994035,-0.069210,124.000,17.000,35.0,0.5,5,5
323.372,1594204776.000,39.994035,-0.069210,124.000,17.000,35.0,0.5,5,5
324.390,1594204777.000,39.994044,-0.069195,126.000,16.600,36.0,0.2,5,5
324.407,1594204777.000,39.994044,-0.069195,126.000,16.600,36.0,0.2,5,5
325.396,1594204778.000,39.994044,-0.069182,126.000,16.800,36.0,0.2,5,5
325.406,1594204778.000,39.994044,-0.069182,126.000,16.800,36.0,0.2,5,5
326.386,1594204779.000,39.994050,-0.069166,127.000,16.500,37.0,0.4,5,5
326.399,1594204779.000,39.994050,-0.069166,127.000,16.500,37.0,0.4,5,5
327.402,1594204780.000,39.994059,-0.069151,128.000,16.200,37.0,0.4,5,5
327.409,1594204780.000,39.994059,-0.069151,128.000,16.200,37.0,0.4,5,5
328.409,1594204781.000,39.994068,-0.069142,129.000,16.000,37.0,0.5,5,5
328.426,1594204781.000,39.994068,-0.069142,129.000,16.000,37.0,0.5,5,5
329.380,1594204782.000,39.994076,-0.069128,129.000,21.400,37.0,0.6,5,5
329.401,1594204782.000,39.994076,-0.069128,129.000,21.400,37.0,0.6,5,5
330.393,1594204783.000,39.994087,-0.069112,130.000,23.900,38.0,0.6,5,5
330.408,1594204783.000,39.994087,-0.069112,130.000,23.900,38.0,0.6,5,5
331.386,1594204784.000,39.994094,-0.069099,130.000,30.000,38.0,0.6,5,5
331.394,1594204784.000,39.994094,-0.069099,130.000,30.000,38.0,0.6,5,5
332.393,1594204785.000,39.994105,-0.069083,131.000,32.100,38.0,0.5,5,5
332.407,1594204785.000,39.994105,-0.069083,131.000,32.100,38.0,0.5,5,5
333.363,1594204786.000,39.994111,-0.069070,131.000,33.300,36.0,0.6,5,5
333.380,1594204786.000,39.994111,-0.069070,131.000,33.300,36.0,0.6,5,5
334.387,1594204787.000,39.994117,-0.069052,132.000,38.600,36.0,0.6,5,5
334.410,1594204787.000,39.994117,-0.069052,132.000,38.600,36.0,0.6,5,5
335.365,1594204788.000,39.994125,-0.069037,133.000,43.200,36.0,0.6,5,5
335.377,1594204788.000,39.994125,-0.069037,133.000,43.200,36.0,0.6,5,5
336.366,1594204789.000,39.994134,-0.069026,133.000,42.000,40.0,0.6,5,5
336.378,1594204789.000,39.994134,-0.069026,133.000,42.000,40.0,0.6,5,5
337.383,1594204790.000,39.994147,-0.069009,133.000,41.000,39.0,0.7,5,5
337.393,1594204790.000,39.994147,-0.069009,133.000,41.000,39.0,0.7,5,5
338.397,1594204791.000,39.994150,-0.069005,134.000,37.000,39.0,0.6,5,5
338.406,1594204791.000,39.994150,-0.069005,134.000,37.000,39.0,0.6,5,5
339.378,1594204792.000,39.994162,-0.068985,134.000,38.900,39.0,0.6,5,5
339.408,1594204792.000,39.994162,-0.068985,134.000,38.900,39.0,0.6,5,5
340.426,1594204793.000,39.994169,-0.068975,133.000,45.200,39.0,0.7,5,5
340.446,1594204793.000,39.994169,-0.068975,133.000,45.200,39.0,0.7,5,5
341.397,1594204794.000,39.994171,-0.068979,133.000,49.600,38.0,0.5,5,5
341.409,1594204794.000,39.994171,-0.068979,133.000,49.600,38.0,0.5,5,5
342.373,1594204795.000,39.994174,-0.068974,133.000,51.200,39.0,0.4,5,5
342.391,1594204795.000,39.994174,-0.068974,133.000,51.200,39.0,0.4,5,5
343.401,1594204796.000,39.994176,-0.068969,133.000,52.800,39.0,0.3,5,5
343.408,1594204796.000,39.994176,-0.068969,133.000,52.800,39.0,0.3,5,5
344.361,1594204797.000,39.994180,-0.068959,133.000,0.000,39.0,0.0,5,5
344.389,1594204797.000,39.994180,-0.068959,133.000,0.000,39.0,0.0,5,5
345.370,1594204798.000,39.994180,-0.068959,133.000,0.000,39.0,0.0,5,5
345.392,1594204798.000,39.994180,-0.068959,133.000,0.000,39.0,0.0,5,5
346.387,1594204799.000,39.994180,-0.068959,133.000,0.000,39.0,0.0,5,5
346.394,1594204799.000,39.994180,-0.068959,133.000,0.000,39.0,0.0,5,5
347.380,1594204800.000,39.994180,-0.068959,133.000,0.000,39.0,0.0,5,5
347.384,1594204800.000,39.994180,-0.068959,133.000,0.000,39.0,0.0,5,5
348.361,1594204801.000,39.994186,-0.068940,133.000,51.300,40.0,0.6,5,5
348.369,1594204801.000,39.994186,-0.068940,133.000,51.300,40.0,0.6,5,5
349.376,1594204802.000,39.994187,-0.068932,134.000,54.700,40.0,0.7,5,5
349.382,1594204802.000,39.994187,-0.068932,134.000,54.700,40.0,0.7,5,5
350.393,1594204803.000,39.994181,-0.068926,134.000,59.300,39.0,0.6,5,5
350.401,1594204803.000,39.994181,-0.068926,134.000,59.300,39.0,0.6,5,5
351.360,1594204804.000,39.994079,-0.068923,136.000,60.000,33.0,0.4,5,4
351.370,1594204804.000,39.994079,-0.068923,136.000,60.000,33.0,0.4,5,4
352.401,1594204805.000,39.994058,-0.068894,136.000,69.300,30.0,1.0,5,4
352.417,1594204805.000,39.994058,-0.068894,136.000,69.300,30.0,1.0,5,4
353.399,1594204806.000,39.994065,-0.068900,137.000,70.700,32.0,0.6,5,5
353.419,1594204806.000,39.994065,-0.068900,137.000,70.700,32.0,0.6,5,5
354.391,1594204807.000,39.994069,-0.068900,137.000,69.100,33.0,0.6,5,5
354.400,1594204807.000,39.994069,-0.068900,137.000,69.100,33.0,0.6,5,5
355.385,1594204808.000,39.994075,-0.068887,138.000,71.000,33.0,1.0,5,5
355.396,1594204808.000,39.994075,-0.068887,138.000,71.000,33.0,1.0,5,5
356.383,1594204809.000,39.994086,-0.068872,139.000,70.100,34.0,1.2,6,5
356.395,1594204809.000,39.994086,-0.068872,139.000,70.100,34.0,1.2,6,5
358.407,1594204811.000,39.994136,-0.068886,140.000,61.500,33.0,1.1,6,4
358.419,1594204811.000,39.994136,-0.068886,140.000,61.500,33.0,1.1,6,4
359.386,1594204812.000,39.994145,-0.068910,141.000,55.900,33.0,1.0,6,4
359.414,1594204812.000,39.994145,-0.068910,141.000,55.900,33.0,1.0,6,4
360.369,1594204813.000,39.994125,-0.068932,141.000,55.200,32.0,0.8,6,4
360.394,1594204813.000,39.994125,-0.068932,141.000,55.200,32.0,0.8,6,4
361.372,1594204814.000,39.994129,-0.068930,142.000,54.400,33.0,0.7,6,4
361.379,1594204814.000,39.994129,-0.068930,142.000,54.400,33.0,0.7,6,4
362.366,1594204815.000,39.994132,-0.068934,142.000,52.600,34.0,0.6,6,4
362.370,1594204815.000,39.994132,-0.068934,142.000,52.600,34.0,0.6,6,4
363.355,1594204816.000,39.994139,-0.068930,142.000,49.000,35.0,0.6,6,4
363.370,1594204816.000,39.994139,-0.068930,142.000,49.000,35.0,0.6,6,4
364.343,1594204817.000,39.994152,-0.068930,143.000,38.200,36.0,0.8,6,4
364.360,1594204817.000,39.994152,-0.068930,143.000,38.200,36.0,0.8,6,4
365.348,1594204818.000,39.994159,-0.068926,143.000,35.700,37.0,0.7,5,4
365.355,1594204818.000,39.994159,-0.068926,143.000,35.700,37.0,0.7,5,4
366.388,1594204819.000,39.994167,-0.068924,144.000,32.600,38.0,0.7,5,4
366.399,1594204819.000,39.994167,-0.068924,144.000,32.600,38.0,0.7,5,4
367.379,1594204820.000,39.994175,-0.068920,144.000,32.900,40.0,0.8,5,4
367.396,1594204820.000,39.994175,-0.068920,144.000,32.900,40.0,0.8,5,4
368.377,1594204821.000,39.994152,-0.068945,144.000,34.500,34.0,0.6,5,4
368.381,1594204821.000,39.994152,-0.068945,144.000,34.500,34.0,0.6,5,4
369.331,1594204822.000,39.994105,-0.069008,145.000,36.900,34.0,0.1,5,4
369.342,1594204822.000,39.994105,-0.069008,145.000,36.900,34.0,0.1,5,4
370.356,1594204823.000,39.994101,-0.069047,145.000,37.600,32.0,0.1,5,4
370.368,1594204823.000,39.994101,-0.069047,145.000,37.600,32.0,0.1,5,4
371.358,1594204824.000,39.994097,-0.069065,143.000,0.000,30.0,0.0,6,4
371.382,1594204824.000,39.994097,-0.069065,143.000,0.000,30.0,0.0,6,4
372.358,1594204825.000,39.994097,-0.069065,143.000,0.000,31.0,0.0,6,4
372.372,1594204825.000,39.994097,-0.069065,143.000,0.000,31.0,0.0,6,4
373.370,1594204826.000,39.994097,-0.069065,143.000,0.000,31.0,0.0,6,5
373.383,1594204826.000,39.994097,-0.069065,143.000,0.000,31.0,0.0,6,5
374.386,1594204827.000,39.994102,-0.069126,143.000,14.300,31.0,0.5,6,5
374.402,1594204827.000,39.994102,-0.069126,143.000,14.300,31.0,0.5,6,5
375.354,1594204828.000,39.994102,-0.069140,143.000,24.600,31.0,1.0,6,5
375.369,1594204828.000,39.994102,-0.069140,143.000,24.600,31.0,1.0,6,5
376.342,1594204829.000,39.994099,-0.069143,142.000,24.400,29.0,0.2,6,5
376.361,1594204829.000,39.994099,-0.069143,142.000,24.400,29.0,0.2,6,5
377.355,1594204830.000,39.994107,-0.069153,142.000,29.900,30.0,0.8,6,5
377.360,1594204830.000,39.994107,-0.069153,142.000,29.900,30.0,0.8,6,5
378.358,1594204831.000,39.994114,-0.069155,142.000,30.100,29.0,0.4,6,5
378.377,1594204831.000,39.994114,-0.069155,142.000,30.100,29.0,0.4,6,5
379.358,1594204832.000,39.994114,-0.069154,142.000,30.400,30.0,0.3,6,5
379.363,1594204832.000,39.994114,-0.069154,142.000,30.400,30.0,0.3,6,5
380.350,1594204833.000,39.994120,-0.069149,142.000,30.200,31.0,0.2,5,4
380.371,1594204833.000,39.994120,-0.069149,142.000,30.200,31.0,0.2,5,4
383.390,1594204836.000,39.994144,-0.069209,141.000,21.600,53.0,0.6,6,5
383.401,1594204836.000,39.994144,-0.069209,141.000,21.600,53.0,0.6,6,5
404.336,1594204857.000,39.993922,-0.069023,171.000,101.900,69.0,2.3,8,4
404.349,1594204857.000,39.993922,-0.069023,171.000,101.900,69.0,2.3,8,4
550.410,1594205003.000,39.993349,-0.069715,177.000,0.000,37.0,0.1,6,4
550.426,1594205003.000,39.993349,-0.069715,177.000,0.000,37.0,0.1,6,4
551.403,1594205004.000,39.993411,-0.069700,167.000,25.200,41.0,2.1,5,4
551.417,1594205004.000,39.993411,-0.069700,167.000,25.200,41.0,2.1,5,4
552.344,1594205005.000,39.993414,-0.069715,172.000,25.600,43.0,0.2,5,4
552.366,1594205005.000,39.993414,-0.069715,172.000,25.600,43.0,0.2,5,4
553.401,1594205006.000,39.993443,-0.069734,167.000,26.000,51.0,0.6,5,4
553.411,1594205006.000,39.993443,-0.069734,167.000,26.000,51.0,0.6,5,4
554.361,1594205007.000,39.993451,-0.069715,171.000,24.700,52.0,0.9,5,4
554.369,1594205007.000,39.993451,-0.069715,171.000,24.700,52.0,0.9,5,4
555.418,1594205008.000,39.993472,-0.069668,174.000,25.000,54.0,1.3,5,4
555.421,1594205008.000,39.993472,-0.069668,174.000,25.000,54.0,1.3,5,4
556.410,1594205009.000,39.993447,-0.069647,178.000,25.300,56.0,1.1,5,4
556.414,1594205009.000,39.993447,-0.069647,178.000,25.300,56.0,1.1,5,4
557.342,1594205010.000,39.993463,-0.069640,183.000,23.600,58.0,2.0,5,4
557.357,1594205010.000,39.993463,-0.069640,183.000,23.600,58.0,2.0,5,4
558.372,1594205011.000,39.993452,-0.069624,191.000,32.000,60.0,2.0,5,4
558.391,1594205011.000,39.993452,-0.069624,191.000,32.000,60.0,2.0,5,4
559.377,1594205012.000,39.993436,-0.069603,195.000,38.200,61.0,1.5,5,4
559.385,1594205012.000,39.993436,-0.069603,195.000,38.200,61.0,1.5,5,4
560.384,1594205013.000,39.993498,-0.069554,191.000,42.800,65.0,1.8,6,4
560.401,1594205013.000,39.993498,-0.069554,191.000,42.800,65.0,1.8,6,4
564.367,1594205017.000,39.993584,-0.069519,211.000,42.100,95.0,2.7,6,5
564.377,1594205017.000,39.993584,-0.069519,211.000,42.100,95.0,2.7,6,5
565.355,1594205018.000,39.993798,-0.069352,203.000,34.900,88.0,5.3,6,4
565.379,1594205018.000,39.993798,-0.069352,203.000,34.900,88.0,5.3,6,4
583.369,1594205036.000,39.994226,-0.068990,175.000,6.800,93.0,2.6,6,4
583.381,1594205036.000,39.994226,-0.068990,175.000,6.800,93.0,2.6,6,4
584.341,1594205037.000,39.994190,-0.069046,165.000,12.400,88.0,1.9,6,5
584.348,1594205037.000,39.994190,-0.069046,165.000,12.400,88.0,1.9,6,5
585.330,1594205038.000,39.994137,-0.069088,158.000,11.000,82.0,0.8,6,5
585.361,1594205038.000,39.994137,-0.069088,158.000,11.000,82.0,0.8,6,5
586.350,1594205039.000,39.994053,-0.069148,157.000,6.700,76.0,0.7,6,5
586.361,1594205039.000,39.994053,-0.069148,157.000,6.700,76.0,0.7,6,5
587.341,1594205040.000,39.993997,-0.069197,160.000,358.300,71.0,0.9,6,5
587.346,1594205040.000,39.993997,-0.069197,160.000,358.300,71.0,0.9,6,5
588.351,1594205041.000,39.993983,-0.069242,161.000,347.600,77.0,0.9,6,5
588.376,1594205041.000,39.993983,-0.069242,161.000,347.600,77.0,0.9,6,5
589.348,1594205042.000,39.993963,-0.069293,157.000,344.000,76.0,0.5,6,5
589.365,1594205042.000,39.993963,-0.069293,157.000,344.000,76.0,0.5,6,5
590.378,1594205043.000,39.993936,-0.069369,150.000,335.800,74.0,0.7,6,5
590.383,1594205043.000,39.993936,-0.069369,150.000,335.800,74.0,0.7,6,5
591.346,1594205044.000,39.993923,-0.069434,147.000,314.900,74.0,1.3,6,5
591.364,1594205044.000,39.993923,-0.069434,147.000,314.900,74.0,1.3,6,5
592.355,1594205045.000,39.993916,-0.069484,144.000,298.600,74.0,1.6,6,5
592.369,1594205045.000,39.993916,-0.069484,144.000,298.600,74.0,1.6,6,5
593.331,1594205046.000,39.993916,-0.069501,145.000,288.700,74.0,1.1,6,5
593.340,1594205046.000,39.993916,-0.069501,145.000,288.700,74.0,1.1,6,5
594.329,1594205047.000,39.993902,-0.069534,144.000,275.800,73.0,1.2,6,5
594.338,1594205047.000,39.993902,-0.069534,144.000,275.800,73.0,1.2,6,5
595.334,1594205048.000,39.993906,-0.069547,142.000,268.000,73.0,1.4,6,5
595.347,1594205048.000,39.993906,-0.069547,142.000,268.000,73.0,1.4,6,5
645.440,1594205098.000,39.993702,-0.069477,150.000,188.500,45.0,1.7,9,4
645.449,1594205098.000,39.993702,-0.069477,150.000,188.500,45.0,1.7,9,4
646.430,1594205099.000,39.993695,-0.069491,150.000,191.200,44.0,1.5,10,4
646.452,1594205099.000,39.993695,-0.069491,150.000,191.200,44.0,1.5,10,4
647.396,1594205100.000,39.993649,-0.069486,157.000,187.800,45.0,1.3,10,4
647.399,1594205100.000,39.993649,-0.069486,157.000,187.800,45.0,1.3,10,4
649.441,1594205102.000,39.993649,-0.069435,161.000,181.700,47.0,1.0,10,4
649.451,1594205102.000,39.993649,-0.069435,161.000,181.700,47.0,1.0,10,4
650.421,1594205103.000,39.993602,-0.069463,165.000,185.100,50.0,1.3,10,4
650.431,1594205103.000,39.993602,-0.069463,165.000,185.100,50.0,1.3,10,4
651.430,1594205104.000,39.993661,-0.069445,157.000,182.900,39.0,0.3,10,4
651.447,1594205104.000,39.993661,-0.069445,157.000,182.900,39.0,0.3,10,4
652.404,1594205105.000,39.993675,-0.069455,153.000,180.700,38.0,0.5,11,4
652.423,1594205105.000,39.993675,-0.069455,153.000,180.700,38.0,0.5,11,4
653.428,1594205106.000,39.993622,-0.069477,160.000,178.500,38.0,0.7,8,4
653.435,1594205106.000,39.993622,-0.069477,160.000,178.500,38.0,0.7,8,4
654.426,1594205107.000,39.993627,-0.069474,159.000,186.800,42.0,0.1,8,4
654.443,1594205107.000,39.993627,-0.069474,159.000,186.800,42.0,0.1,8,4
655.472,1594205108.000,39.993615,-0.069479,159.000,186.000,40.0,0.7,8,5
655.480,1594205108.000,39.993615,-0.069479,159.000,186.000,40.0,0.7,8,5
656.404,1594205109.000,39.993617,-0.069474,156.000,182.700,41.0,0.8,8,5
656.413,1594205109.000,39.993617,-0.069474,156.000,182.700,41.0,0.8,8,5
657.437,1594205110.000,39.993645,-0.069456,151.000,181.700,38.0,0.4,8,5
657.460,1594205110.000,39.993645,-0.069456,151.000,181.700,38.0,0.4,8,5
658.419,1594205111.000,39.993655,-0.069442,153.000,180.700,37.0,0.4,9,5
658.423,1594205111.000,39.993655,-0.069442,153.000,180.700,37.0,0.4,9,5
659.415,1594205112.000,39.993657,-0.069444,156.000,179.800,41.0,0.4,9,5
659.425,1594205112.000,39.993657,-0.069444,156.000,179.800,41.0,0.4,9,5
660.427,1594205113.000,39.993655,-0.069447,159.000,186.100,39.0,0.7,10,5
660.436,1594205113.000,39.993655,-0.069447,159.000,186.100,39.0,0.7,10,5
661.426,1594205114.000,39.993661,-0.069447,162.000,185.700,42.0,0.3,10,5
661.433,1594205114.000,39.993661,-0.069447,162.000,185.700,42.0,0.3,10,5
662.396,1594205115.000,39.993659,-0.069466,160.000,201.100,42.0,0.7,10,5
662.400,1594205115.000,39.993659,-0.069466,160.000,201.100,42.0,0.7,10,5
663.415,1594205116.000,39.993656,-0.069470,160.000,208.800,42.0,0.9,10,5
663.422,1594205116.000,39.993656,-0.069470,160.000,208.800,42.0,0.9,10,5
664.415,1594205117.000,39.993660,-0.069467,162.000,210.400,43.0,0.3,11,4
664.438,1594205117.000,39.993660,-0.069467,162.000,210.400,43.0,0.3,11,4
665.435,1594205118.000,39.993677,-0.069493,159.000,212.000,42.0,0.7,12,4
665.448,1594205118.000,39.993677,-0.069493,159.000,212.000,42.0,0.7,12,4
666.412,1594205119.000,39.993669,-0.069478,158.000,213.600,39.0,0.6,11,4
666.418,1594205119.000,39.993669,-0.069478,158.000,213.600,39.0,0.6,11,4
667.385,1594205120.000,39.993674,-0.069480,158.000,215.200,43.0,0.5,11,5
667.391,1594205120.000,39.993674,-0.069480,158.000,215.200,43.0,0.5,11,5
668.445,1594205121.000,39.993680,-0.069470,160.000,216.800,40.0,0.3,11,5
668.454,1594205121.000,39.993680,-0.069470,160.000,216.800,40.0,0.3,11,5
669.417,1594205122.000,39.993693,-0.069450,161.000,308.300,41.0,0.8,11,5
669.426,1594205122.000,39.993693,-0.069450,161.000,308.300,41.0,0.8,11,5
670.429,1594205123.000,39.993705,-0.069468,159.000,336.000,43.0,0.9,11,5
670.459,1594205123.000,39.993705,-0.069468,159.000,336.000,43.0,0.9,11,5
671.407,1594205124.000,39.993726,-0.069474,159.000,355.100,40.0,1.0,11,5
671.435,1594205124.000,39.993726,-0.069474,159.000,355.100,40.0,1.0,11,5
672.390,1594205125.000,39.993714,-0.069435,159.000,28.700,31.0,1.5,11,4
672.400,1594205125.000,39.993714,-0.069435,159.000,28.700,31.0,1.5,11,4
673.409,1594205126.000,39.993714,-0.069443,159.000,33.100,34.0,0.8,12,5
673.417,1594205126.000,39.993714,-0.069443,159.000,33.100,34.0,0.8,12,5
674.413,1594205127.000,39.993709,-0.069446,159.000,45.800,34.0,0.2,11,5
674.422,1594205127.000,39.993709,-0.069446,159.000,45.800,34.0,0.2,11,5
675.404,1594205128.000,39.993634,-0.069505,159.000,68.600,30.0,0.5,11,4
675.423,1594205128.000,39.993634,-0.069505,159.000,68.600,30.0,0.5,11,4
676.413,1594205129.000,39.993576,-0.069525,165.000,91.100,26.0,0.8,11,4
676.418,1594205129.000,39.993576,-0.069525,165.000,91.100,26.0,0.8,11,4
677.405,1594205130.000,39.993573,-0.069513,161.000,108.700,25.0,0.7,11,4
677.414,1594205130.000,39.993573,-0.069513,161.000,108.700,25.0,0.7,11,4
678.411,1594205131.000,39.993570,-0.069492,160.000,117.100,28.0,0.9,11,4
678.420,1594205131.000,39.993570,-0.069492,160.000,117.100,28.0,0.9,11,4
679.405,1594205132.000,39.993591,-0.069497,159.000,79.500,30.0,1.7,10,5
679.418,1594205132.000,39.993591,-0.069497,159.000,79.500,30.0,1.7,10,5
680.450,1594205133.000,39.993603,-0.069466,156.000,69.800,27.0,0.9,10,4
680.457,1594205133.000,39.993603,-0.069466,156.000,69.800,27.0,0.9,10,4
681.384,1594205134.000,39.993594,-0.069460,155.000,75.500,25.0,0.3,10,4
681.400,1594205134.000,39.993594,-0.069460,155.000,75.500,25.0,0.3,10,4
682.405,1594205135.000,39.993603,-0.069440,153.000,58.400,22.0,0.6,10,4
682.410,1594205135.000,39.993603,-0.069440,153.000,58.400,22.0,0.6,10,4
683.422,1594205136.000,39.993599,-0.069439,153.000,61.300,27.0,0.3,10,5
683.451,1594205136.000,39.993599,-0.069439,153.000,61.300,27.0,0.3,10,5
684.406,1594205137.000,39.993602,-0.069435,153.000,56.400,31.0,0.2,10,4
684.415,1594205137.000,39.993602,-0.069435,153.000,56.400,31.0,0.2,10,4
685.433,1594205138.000,39.993607,-0.069440,153.000,57.800,31.0,0.6,10,5
685.440,1594205138.000,39.993607,-0.069440,153.000,57.800,31.0,0.6,10,5
686.425,1594205139.000,39.993613,-0.069437,152.000,48.900,32.0,0.6,10,5
686.433,1594205139.000,39.993613,-0.069437,152.000,48.900,32.0,0.6,10,5
687.423,1594205140.000,39.993618,-0.069436,152.000,49.500,34.0,0.4,10,5
687.440,1594205140.000,39.993618,-0.069436,152.000,49.500,34.0,0.4,10,5
688.397,1594205141.000,39.993640,-0.069426,154.000,40.900,34.0,0.7,10,5
688.413,1594205141.000,39.993640,-0.069426,154.000,40.900,34.0,0.7,10,5
689.394,1594205142.000,39.993633,-0.069467,154.000,40.700,31.0,0.4,10,4
689.410,1594205142.000,39.993633,-0.069467,154.000,40.700,31.0,0.4,10,4
690.395,1594205143.000,39.993636,-0.069497,155.000,33.000,33.0,0.7,10,4
690.414,1594205143.000,39.993636,-0.069497,155.000,33.000,33.0,0.7,10,4
691.385,1594205144.000,39.993613,-0.069498,154.000,32.100,32.0,0.3,10,4
691.413,1594205144.000,39.993613,-0.069498,154.000,32.100,32.0,0.3,10,4
692.394,1594205145.000,39.993628,-0.069519,153.000,17.400,33.0,0.8,10,4
692.409,1594205145.000,39.993628,-0.069519,153.000,17.400,33.0,0.8,10,4
693.390,1594205146.000,39.993632,-0.069516,153.000,15.300,35.0,0.4,10,5
693.406,1594205146.000,39.993632,-0.069516,153.000,15.300,35.0,0.4,10,5
694.401,1594205147.000,39.993677,-0.069477,155.000,15.700,37.0,1.3,10,4
694.422,1594205147.000,39.993677,-0.069477,155.000,15.700,37.0,1.3,10,4
695.384,1594205148.000,39.993671,-0.069484,156.000,18.800,36.0,0.8,10,4
695.401,1594205148.000,39.993671,-0.069484,156.000,18.800,36.0,0.8,10,4
698.396,1594205151.000,39.993609,-0.069488,157.000,14.600,41.0,0.8,10,4
698.407,1594205151.000,39.993609,-0.069488,157.000,14.600,41.0,0.8,10,4
700.393,1594205153.000,39.993599,-0.069416,156.000,52.700,41.0,2.1,10,4
700.408,1594205153.000,39.993599,-0.069416,156.000,52.700,41.0,2.1,10,4
702.391,1594205155.000,39.993622,-0.069420,156.000,61.900,41.0,1.8,10,4
702.399,1594205155.000,39.993622,-0.069420,156.000,61.900,41.0,1.8,10,4
703.394,1594205156.000,39.993638,-0.069393,156.000,61.200,42.0,1.9,10,4
703.403,1594205156.000,39.993638,-0.069393,156.000,61.200,42.0,1.9,10,4
704.389,1594205157.000,39.993650,-0.069393,157.000,55.700,42.0,1.2,10,4
704.402,1594205157.000,39.993650,-0.069393,157.000,55.700,42.0,1.2,10,4
705.378,1594205158.000,39.993634,-0.069434,157.000,39.900,42.0,1.4,8,4
705.388,1594205158.000,39.993634,-0.069434,157.000,39.900,42.0,1.4,8,4
706.385,1594205159.000,39.993613,-0.069478,157.000,33.400,41.0,0.9,9,4
706.392,1594205159.000,39.993613,-0.069478,157.000,33.400,41.0,0.9,9,4
707.397,1594205160.000,39.993622,-0.069519,156.000,15.100,41.0,1.3,9,4
707.411,1594205160.000,39.993622,-0.069519,156.000,15.100,41.0,1.3,9,4
709.405,1594205162.000,39.993710,-0.069461,158.000,4.200,39.0,2.2,9,4
709.415,1594205162.000,39.993710,-0.069461,158.000,4.200,39.0,2.2,9,4
710.393,1594205163.000,39.993739,-0.069437,158.000,5.700,35.0,1.4,9,4
710.403,1594205163.000,39.993739,-0.069437,158.000,5.700,35.0,1.4,9,4
730.352,1594205183.000,39.993986,-0.069223,110.000,30.800,46.0,0.4,10,5
730.378,1594205183.000,39.993986,-0.069223,110.000,30.800,46.0,0.4,10,5
731.373,1594205184.000,39.994002,-0.069226,110.000,23.900,48.0,1.4,10,5
731.397,1594205184.000,39.994002,-0.069226,110.000,23.900,48.0,1.4,10,5
732.387,1594205185.000,39.994008,-0.069247,108.000,19.200,48.0,1.4,10,5
732.400,1594205185.000,39.994008,-0.069247,108.000,19.200,48.0,1.4,10,5
733.388,1594205186.000,39.994017,-0.069265,118.000,6.800,49.0,1.5,10,5
733.396,1594205186.000,39.994017,-0.069265,118.000,6.800,49.0,1.5,10,5
734.368,1594205187.000,39.994052,-0.069268,119.000,7.400,44.0,1.3,10,4
734.379,1594205187.000,39.994052,-0.069268,119.000,7.400,44.0,1.3,10,4
736.376,1594205189.000,39.994105,-0.069225,126.000,17.700,43.0,1.8,10,4
736.388,1594205189.000,39.994105,-0.069225,126.000,17.700,43.0,1.8,10,4
737.380,1594205190.000,39.994162,-0.069253,122.000,11.900,42.0,1.7,10,4
737.403,1594205190.000,39.994162,-0.069253,122.000,11.900,42.0,1.7,10,4
738.365,1594205191.000,39.994176,-0.069263,125.000,10.500,43.0,1.4,10,4
738.372,1594205191.000,39.994176,-0.069263,125.000,10.500,43.0,1.4,10,4
739.401,1594205192.000,39.994176,-0.069261,125.000,9.700,43.0,0.7,10,5
739.415,1594205192.000,39.994176,-0.069261,125.000,9.700,43.0,0.7,10,5
740.389,1594205193.000,39.994198,-0.069234,129.000,19.000,41.0,1.1,10,5
740.394,1594205193.000,39.994198,-0.069234,129.000,19.000,41.0,1.1,10,5
741.351,1594205194.000,39.994226,-0.069186,132.000,22.100,33.0,1.2,10,4
741.380,1594205194.000,39.994226,-0.069186,132.000,22.100,33.0,1.2,10,4
742.372,1594205195.000,39.994247,-0.069175,131.000,19.300,34.0,2.0,11,4
742.377,1594205195.000,39.994247,-0.069175,131.000,19.300,34.0,2.0,11,4
743.359,1594205196.000,39.994228,-0.069221,133.000,12.600,32.0,1.3,11,4
743.364,1594205196.000,39.994228,-0.069221,133.000,12.600,32.0,1.3,11,4
744.400,1594205197.000,39.994236,-0.069201,133.000,22.500,33.0,1.9,11,5
744.423,1594205197.000,39.994236,-0.069201,133.000,22.500,33.0,1.9,11,5
745.410,1594205198.000,39.994245,-0.069189,132.000,26.800,34.0,1.0,11,5
745.421,1594205198.000,39.994245,-0.069189,132.000,26.800,34.0,1.0,11,5
746.376,1594205199.000,39.994248,-0.069191,132.000,30.500,37.0,0.9,10,5
746.385,1594205199.000,39.994248,-0.069191,132.000,30.500,37.0,0.9,10,5
747.396,1594205200.000,39.994248,-0.069194,132.000,34.300,37.0,0.9,11,5
747.420,1594205200.000,39.994248,-0.069194,132.000,34.300,37.0,0.9,11,5
748.376,1594205201.000,39.994245,-0.069186,131.000,38.400,40.0,0.9,12,5
748.387,1594205201.000,39.994245,-0.069186,131.000,38.400,40.0,0.9,12,5
749.362,1594205202.000,39.994249,-0.069200,130.000,36.300,37.0,0.9,12,5
749.375,1594205202.000,39.994249,-0.069200,130.000,36.300,37.0,0.9,12,5
750.358,1594205203.000,39.994249,-0.069200,128.000,32.000,40.0,0.9,11,5
750.380,1594205203.000,39.994249,-0.069200,128.000,32.000,40.0,0.9,11,5
751.345,1594205204.000,39.994271,-0.069176,131.000,31.900,37.0,0.6,11,5
751.364,1594205204.000,39.994271,-0.069176,131.000,31.900,37.0,0.6,11,5
752.409,1594205205.000,39.994274,-0.069170,131.000,32.700,38.0,0.4,10,5
752.416,1594205205.000,39.994274,-0.069170,131.000,32.700,38.0,0.4,10,5
753.370,1594205206.000,39.994270,-0.069168,131.000,33.400,38.0,0.5,10,5
753.382,1594205206.000,39.994270,-0.069168,131.000,33.400,38.0,0.5,10,5
754.392,1594205207.000,39.994263,-0.069172,131.000,38.200,40.0,0.5,10,5
754.401,1594205207.000,39.994263,-0.069172,131.000,38.200,40.0,0.5,10,5
755.375,1594205208.000,39.994249,-0.069175,129.000,39.400,41.0,0.3,9,5
755.381,1594205208.000,39.994249,-0.069175,129.000,39.400,41.0,0.3,9,5
756.347,1594205209.000,39.994244,-0.069167,129.000,40.700,42.0,0.2,7,5
756.357,1594205209.000,39.994244,-0.069167,129.000,40.700,42.0,0.2,7,5
757.356,1594205210.000,39.994312,-0.069095,127.000,50.700,37.0,1.0,7,4
757.376,1594205210.000,39.994312,-0.069095,127.000,50.700,37.0,1.0,7,4
758.353,1594205211.000,39.994288,-0.069100,125.000,48.600,31.0,1.1,6,4
758.365,1594205211.000,39.994288,-0.069100,125.000,48.600,31.0,1.1,6,4
759.353,1594205212.000,39.994285,-0.069102,126.000,50.300,33.0,0.4,6,5
759.358,1594205212.000,39.994285,-0.069102,126.000,50.300,33.0,0.4,6,5
760.385,1594205213.000,39.994250,-0.069156,125.000,52.000,29.0,0.5,7,4
760.401,1594205213.000,39.994250,-0.069156,125.000,52.000,29.0,0.5,7,4
761.358,1594205214.000,39.994243,-0.069165,125.000,53.700,33.0,0.3,7,5
761.367,1594205214.000,39.994243,-0.069165,125.000,53.700,33.0,0.3,7,5
762.382,1594205215.000,39.994231,-0.069170,125.000,55.400,31.0,0.4,7,5
762.398,1594205215.000,39.994231,-0.069170,125.000,55.400,31.0,0.4,7,5
763.359,1594205216.000,39.994224,-0.069182,124.000,57.200,32.0,0.5,7,5
763.392,1594205216.000,39.994224,-0.069182,124.000,57.200,32.0,0.5,7,5
764.393,1594205217.000,39.994221,-0.069185,126.000,51.900,32.0,0.1,7,5
764.406,1594205217.000,39.994221,-0.069185,126.000,51.900,32.0,0.1,7,5
765.352,1594205218.000,39.994227,-0.069183,126.000,52.600,33.0,0.5,7,5
765.362,1594205218.000,39.994227,-0.069183,126.000,52.600,33.0,0.5,7,5
766.400,1594205219.000,39.994243,-0.069177,127.000,30.600,33.0,0.6,7,5
766.409,1594205219.000,39.994243,-0.069177,127.000,30.600,33.0,0.6,7,5
767.358,1594205220.000,39.994245,-0.069179,127.000,29.900,33.0,0.4,7,5
767.371,1594205220.000,39.994245,-0.069179,127.000,29.900,33.0,0.4,7,5
768.358,1594205221.000,39.994250,-0.069181,127.000,29.300,34.0,0.5,8,5
768.365,1594205221.000,39.994250,-0.069181,127.000,29.300,34.0,0.5,8,5
769.335,1594205222.000,39.994264,-0.069183,127.000,22.500,29.0,0.8,9,5
769.345,1594205222.000,39.994264,-0.069183,127.000,22.500,29.0,0.8,9,5
770.406,1594205223.000,39.994266,-0.069184,126.000,23.700,24.0,0.2,9,5
770.413,1594205223.000,39.994266,-0.069184,126.000,23.700,24.0,0.2,9,5
771.365,1594205224.000,39.994250,-0.069205,125.000,345.500,27.0,0.6,9,5
771.379,1594205224.000,39.994250,-0.069205,125.000,345.500,27.0,0.6,9,5
772.350,1594205225.000,39.994233,-0.069230,124.000,326.700,30.0,0.7,7,5
772.360,1594205225.000,39.994233,-0.069230,124.000,326.700,30.0,0.7,7,5
773.359,1594205226.000,39.994216,-0.069258,124.000,306.600,29.0,0.9,8,5
773.368,1594205226.000,39.994216,-0.069258,124.000,306.600,29.0,0.9,8,5
774.367,1594205227.000,39.994232,-0.069255,124.000,305.400,30.0,0.8,8,5
774.385,1594205227.000,39.994232,-0.069255,124.000,305.400,30.0,0.8,8,5
775.376,1594205228.000,39.994239,-0.069252,125.000,307.400,29.0,0.1,8,5
775.393,1594205228.000,39.994239,-0.069252,125.000,307.400,29.0,0.1,8,5
776.390,1594205229.000,39.994238,-0.069236,125.000,305.000,33.0,0.5,8,5
776.400,1594205229.000,39.994238,-0.069236,125.000,305.000,33.0,0.5,8,5
777.333,1594205230.000,39.994231,-0.069245,125.000,302.700,32.0,0.4,8,5
777.362,1594205230.000,39.994231,-0.069245,125.000,302.700,32.0,0.4,8,5
778.363,1594205231.000,39.994223,-0.069259,124.000,303.600,32.0,0.6,7,5
778.369,1594205231.000,39.994223,-0.069259,124.000,303.600,32.0,0.6,7,5
779.351,1594205232.000,39.994234,-0.069264,124.000,322.200,30.0,1.3,8,5
779.355,1594205232.000,39.994234,-0.069264,124.000,322.200,30.0,1.3,8,5
780.381,1594205233.000,39.994261,-0.069242,124.000,336.300,30.0,1.3,8,5
780.397,1594205233.000,39.994261,-0.069242,124.000,336.300,30.0,1.3,8,5
781.369,1594205234.000,39.994271,-0.069255,124.000,340.300,34.0,0.8,8,5
781.372,1594205234.000,39.994271,-0.069255,124.000,340.300,34.0,0.8,8,5
782.347,1594205235.000,39.994266,-0.069230,123.000,334.700,28.0,1.0,8,4
782.360,1594205235.000,39.994266,-0.069230,123.000,334.700,28.0,1.0,8,4
783.340,1594205236.000,39.994246,-0.069239,122.000,335.300,25.0,0.4,8,4
783.356,1594205236.000,39.994246,-0.069239,122.000,335.300,25.0,0.4,8,4
784.347,1594205237.000,39.994263,-0.069262,124.000,320.400,24.0,1.8,7,4
784.359,1594205237.000,39.994263,-0.069262,124.000,320.400,24.0,1.8,7,4
785.362,1594205238.000,39.994262,-0.069276,124.000,316.100,21.0,1.1,7,5
785.373,1594205238.000,39.994262,-0.069276,124.000,316.100,21.0,1.1,7,5
786.396,1594205239.000,39.994264,-0.069298,123.000,315.100,22.0,1.1,7,5
786.401,1594205239.000,39.994264,-0.069298,123.000,315.100,22.0,1.1,7,5
787.360,1594205240.000,39.994286,-0.069304,124.000,327.500,21.0,1.1,8,5
787.365,1594205240.000,39.994286,-0.069304,124.000,327.500,21.0,1.1,8,5
788.351,1594205241.000,39.994302,-0.069316,125.000,326.100,19.0,1.1,8,5
788.387,1594205241.000,39.994302,-0.069316,125.000,326.100,19.0,1.1,8,5
789.316,1594205242.000,39.994261,-0.069347,124.000,320.100,21.0,0.9,8,4
789.337,1594205242.000,39.994261,-0.069347,124.000,320.100,21.0,0.9,8,4
790.346,1594205243.000,39.994243,-0.069362,122.000,319.300,21.0,0.6,8,4
790.352,1594205243.000,39.994243,-0.069362,122.000,319.300,21.0,0.6,8,4
791.350,1594205244.000,39.994209,-0.069392,122.000,310.800,21.0,1.2,8,4
791.355,1594205244.000,39.994209,-0.069392,122.000,310.800,21.0,1.2,8,4
792.374,1594205245.000,39.994190,-0.069393,121.000,307.700,22.0,0.7,8,4
792.382,1594205245.000,39.994190,-0.069393,121.000,307.700,22.0,0.7,8,4
793.387,1594205246.000,39.994188,-0.069404,121.000,305.400,21.0,0.5,8,4
793.394,1594205246.000,39.994188,-0.069404,121.000,305.400,21.0,0.5,8,4
794.347,1594205247.000,39.994186,-0.069414,121.000,298.800,25.0,0.8,8,4
794.352,1594205247.000,39.994186,-0.069414,121.000,298.800,25.0,0.8,8,4
795.356,1594205248.000,39.994221,-0.069374,121.000,313.500,21.0,0.7,7,4
795.365,1594205248.000,39.994221,-0.069374,121.000,313.500,21.0,0.7,7,4
796.338,1594205249.000,39.994226,-0.069382,120.000,316.800,27.0,0.8,7,4
796.351,1594205249.000,39.994226,-0.069382,120.000,316.800,27.0,0.8,7,4
797.362,1594205250.000,39.994256,-0.069426,122.000,309.900,26.0,2.5,6,4
797.375,1594205250.000,39.994256,-0.069426,122.000,309.900,26.0,2.5,6,4
798.348,1594205251.000,39.994260,-0.069428,122.000,310.100,30.0,0.9,7,4
798.354,1594205251.000,39.994260,-0.069428,122.000,310.100,30.0,0.9,7,4
799.339,1594205252.000,39.994228,-0.069482,121.000,302.900,31.0,1.3,8,4
799.352,1594205252.000,39.994228,-0.069482,121.000,302.900,31.0,1.3,8,4
800.357,1594205253.000,39.994231,-0.069506,121.000,297.900,33.0,1.5,8,4
800.364,1594205253.000,39.994231,-0.069506,121.000,297.900,33.0,1.5,8,4
802.345,1594205255.000,39.994254,-0.069549,122.000,296.400,35.0,1.1,8,4
802.359,1594205255.000,39.994254,-0.069549,122.000,296.400,35.0,1.1,8,4
803.341,1594205256.000,39.994272,-0.069584,122.000,294.700,36.0,0.6,8,4
803.349,1594205256.000,39.994272,-0.069584,122.000,294.700,36.0,0.6,8,4
804.374,1594205257.000,39.994284,-0.069591,122.000,293.000,38.0,0.5,6,4
804.379,1594205257.000,39.994284,-0.069591,122.000,293.000,38.0,0.5,6,4
808.365,1594205261.000,39.994325,-0.069625,121.000,264.000,42.0,0.3,8,4
808.372,1594205261.000,39.994325,-0.069625,121.000,264.000,42.0,0.3,8,4
815.373,1594205268.000,39.994519,-0.069741,113.000,252.100,41.0,2.8,10,4
815.386,1594205268.000,39.994519,-0.069741,113.000,252.100,41.0,2.8,10,4
971.366,1594205424.000,39.993468,-0.069277,232.000,357.400,58.0,1.6,6,4
971.392,1594205424.000,39.993468,-0.069277,232.000,357.400,58.0,1.6,6,4
972.380,1594205425.000,39.993554,-0.069275,214.000,7.300,53.0,2.7,6,4
972.394,1594205425.000,39.993554,-0.069275,214.000,7.300,53.0,2.7,6,4
973.368,1594205426.000,39.993579,-0.069265,212.000,14.800,53.0,2.8,6,5
973.387,1594205426.000,39.993579,-0.069265,212.000,14.800,53.0,2.8,6,5
974.397,1594205427.000,39.993582,-0.069311,210.000,18.300,54.0,1.6,7,5
974.406,1594205427.000,39.993582,-0.069311,210.000,18.300,54.0,1.6,7,5
975.381,1594205428.000,39.993587,-0.069331,204.000,16.700,54.0,1.2,7,5
975.387,1594205428.000,39.993587,-0.069331,204.000,16.700,54.0,1.2,7,5
976.350,1594205429.000,39.993593,-0.069335,201.000,10.000,57.0,1.3,7,5
976.370,1594205429.000,39.993593,-0.069335,201.000,10.000,57.0,1.3,7,5
977.370,1594205430.000,39.993621,-0.069319,197.000,4.400,54.0,1.5,7,5
977.379,1594205430.000,39.993621,-0.069319,197.000,4.400,54.0,1.5,7,5
978.379,1594205431.000,39.993695,-0.069225,181.000,4.000,52.0,1.6,7,4
978.394,1594205431.000,39.993695,-0.069225,181.000,4.000,52.0,1.6,7,4
980.374,1594205433.000,39.993875,-0.069114,143.000,11.000,55.0,1.6,7,4
980.410,1594205433.000,39.993875,-0.069114,143.000,11.000,55.0,1.6,7,4
981.362,1594205434.000,39.993964,-0.069078,137.000,30.400,52.0,3.0,6,4
981.372,1594205434.000,39.993964,-0.069078,137.000,30.400,52.0,3.0,6,4
982.344,1594205435.000,39.993983,-0.069030,122.000,41.200,52.0,2.6,6,4
982.362,1594205435.000,39.993983,-0.069030,122.000,41.200,52.0,2.6,6,4
994.379,1594205447.000,39.994310,-0.069477,114.000,175.000,85.0,2.6,6,4
994.390,1594205447.000,39.994310,-0.069477,114.000,175.000,85.0,2.6,6,4
995.361,1594205448.000,39.994338,-0.069463,113.000,185.500,67.0,1.3,6,4
995.378,1594205448.000,39.994338,-0.069463,113.000,185.500,67.0,1.3,6,4
996.382,1594205449.000,39.994312,-0.069470,125.000,208.800,57.0,1.4,5,4
996.392,1594205449.000,39.994312,-0.069470,125.000,208.800,57.0,1.4,5,4
997.358,1594205450.000,39.994251,-0.069465,120.000,211.200,54.0,2.4,5,4
997.376,1594205450.000,39.994251,-0.069465,120.000,211.200,54.0,2.4,5,4
998.359,1594205451.000,39.994311,-0.069459,117.000,222.000,54.0,1.0,4,4
998.378,1594205451.000,39.994311,-0.069459,117.000,222.000,54.0,1.0,4,4
999.366,1594205452.000,39.994252,-0.069454,116.000,217.400,55.0,1.9,4,4
999.378,1594205452.000,39.994252,-0.069454,116.000,217.400,55.0,1.9,4,4
1000.377,1594205453.000,39.994230,-0.069503,114.000,220.400,54.0,2.0,4,4
1000.396,1594205453.000,39.994230,-0.069503,114.000,220.400,54.0,2.0,4,4
1001.353,1594205454.000,39.994226,-0.069511,111.000,229.500,58.0,1.0,5,5
1001.364,1594205454.000,39.994226,-0.069511,111.000,229.500,58.0,1.0,5,5
1002.340,1594205455.000,39.994225,-0.069522,108.000,240.100,59.0,1.2,5,5
1002.346,1594205455.000,39.994225,-0.069522,108.000,240.100,59.0,1.2,5,5
1003.339,1594205456.000,39.994222,-0.069532,106.000,248.200,62.0,0.7,5,5
1003.350,1594205456.000,39.994222,-0.069532,106.000,248.200,62.0,0.7,5,5
1004.331,1594205457.000,39.994211,-0.069540,105.000,252.900,63.0,0.9,5,5
1004.346,1594205457.000,39.994211,-0.069540,105.000,252.900,63.0,0.9,5,5
1006.374,1594205459.000,39.994165,-0.069528,107.000,260.300,58.0,1.0,5,4
1006.393,1594205459.000,39.994165,-0.069528,107.000,260.300,58.0,1.0,5,4
1007.348,1594205460.000,39.994171,-0.069532,115.000,257.900,60.0,1.5,5,4
1007.362,1594205460.000,39.994171,-0.069532,115.000,257.900,60.0,1.5,5,4
1011.328,1594205464.000,39.994182,-0.069333,124.000,282.600,50.0,0.9,5,4
1011.349,1594205464.000,39.994182,-0.069333,124.000,282.600,50.0,0.9,5,4
1012.354,1594205465.000,39.994169,-0.069343,122.000,288.800,51.0,0.4,5,5
1012.386,1594205465.000,39.994169,-0.069343,122.000,288.800,51.0,0.4,5,5
1013.326,1594205466.000,39.994161,-0.069342,122.000,294.900,49.0,0.3,5,5
1013.357,1594205466.000,39.994161,-0.069342,122.000,294.900,49.0,0.3,5,5
1014.339,1594205467.000,39.994165,-0.069337,123.000,271.000,52.0,0.2,5,5
1014.346,1594205467.000,39.994165,-0.069337,123.000,271.000,52.0,0.2,5,5
1015.331,1594205468.000,39.994179,-0.069335,124.000,0.000,52.0,0.0,5,5
1015.353,1594205468.000,39.994179,-0.069335,124.000,0.000,52.0,0.0,5,5
1016.346,1594205469.000,39.994178,-0.069332,124.000,266.000,53.0,0.3,5,5
1016.355,1594205469.000,39.994178,-0.069332,124.000,266.000,53.0,0.3,5,5
1017.327,1594205470.000,39.994191,-0.069342,133.000,264.200,50.0,0.1,5,5
1017.342,1594205470.000,39.994191,-0.069342,133.000,264.200,50.0,0.1,5,5
1018.345,1594205471.000,39.994174,-0.069355,136.000,265.100,49.0,0.3,5,5
1018.358,1594205471.000,39.994174,-0.069355,136.000,265.100,49.0,0.3,5,5
1019.379,1594205472.000,39.994167,-0.069347,139.000,291.100,50.0,0.6,5,5
1019.386,1594205472.000,39.994167,-0.069347,139.000,291.100,50.0,0.6,5,5
1020.377,1594205473.000,39.994154,-0.069355,141.000,310.500,50.0,0.6,5,5
1020.397,1594205473.000,39.994154,-0.069355,141.000,310.500,50.0,0.6,5,5
1021.366,1594205474.000,39.994144,-0.069378,139.000,318.000,43.0,0.5,5,5
1021.370,1594205474.000,39.994144,-0.069378,139.000,318.000,43.0,0.5,5,5
1022.373,1594205475.000,39.994160,-0.069382,144.000,326.100,45.0,0.6,5,5
1022.390,1594205475.000,39.994160,-0.069382,144.000,326.100,45.0,0.6,5,5
1023.375,1594205476.000,39.994161,-0.069372,142.000,329.100,44.0,0.5,5,5
1023.389,1594205476.000,39.994161,-0.069372,142.000,329.100,44.0,0.5,5,5
1024.353,1594205477.000,39.994164,-0.069380,140.000,340.200,45.0,0.7,5,5
1024.372,1594205477.000,39.994164,-0.069380,140.000,340.200,45.0,0.7,5,5
1025.336,1594205478.000,39.994179,-0.069369,137.000,349.500,44.0,0.8,5,5
1025.359,1594205478.000,39.994179,-0.069369,137.000,349.500,44.0,0.8,5,5
1026.322,1594205479.000,39.994203,-0.069364,137.000,351.800,40.0,1.0,5,5
1026.329,1594205479.000,39.994203,-0.069364,137.000,351.800,40.0,1.0,5,5
1027.374,1594205480.000,39.994216,-0.069370,135.000,344.500,40.0,1.0,7,5
1027.380,1594205480.000,39.994216,-0.069370,135.000,344.500,40.0,1.0,7,5
1028.351,1594205481.000,39.994233,-0.069357,129.000,337.700,27.0,1.5,7,4
1028.367,1594205481.000,39.994233,-0.069357,129.000,337.700,27.0,1.5,7,4
1029.350,1594205482.000,39.994229,-0.069381,129.000,333.900,26.0,1.3,7,5
1029.387,1594205482.000,39.994229,-0.069381,129.000,333.900,26.0,1.3,7,5
1030.337,1594205483.000,39.994228,-0.069402,129.000,336.500,23.0,0.8,7,5
1030.361,1594205483.000,39.994228,-0.069402,129.000,336.500,23.0,0.8,7,5
1031.345,1594205484.000,39.994237,-0.069405,129.000,3.400,21.0,1.3,7,5
1031.362,1594205484.000,39.994237,-0.069405,129.000,3.400,21.0,1.3,7,5
1032.346,1594205485.000,39.994204,-0.069414,127.000,15.100,20.0,0.8,6,5
1032.359,1594205485.000,39.994204,-0.069414,127.000,15.100,20.0,0.8,6,5
1033.367,1594205486.000,39.994174,-0.069423,126.000,46.300,18.0,0.7,7,5
1033.375,1594205486.000,39.994174,-0.069423,126.000,46.300,18.0,0.7,7,5
1034.366,1594205487.000,39.994146,-0.069419,126.000,73.800,19.0,0.8,8,5
1034.373,1594205487.000,39.994146,-0.069419,126.000,73.800,19.0,0.8,8,5
1035.348,1594205488.000,39.994126,-0.069417,126.000,90.700,16.0,1.1,8,5
1035.362,1594205488.000,39.994126,-0.069417,126.000,90.700,16.0,1.1,8,5
1036.352,1594205489.000,39.994117,-0.069402,126.000,94.200,15.0,1.3,8,5
1036.366,1594205489.000,39.994117,-0.069402,126.000,94.200,15.0,1.3,8,5
1037.352,1594205490.000,39.994101,-0.069401,125.000,105.400,15.0,1.1,8,5
1037.392,1594205490.000,39.994101,-0.069401,125.000,105.400,15.0,1.1,8,5
1038.365,1594205491.000,39.994095,-0.069394,125.000,91.500,14.0,1.3,8,5
1038.373,1594205491.000,39.994095,-0.069394,125.000,91.500,14.0,1.3,8,5
1039.392,1594205492.000,39.994107,-0.069368,126.000,73.000,14.0,1.6,10,5
1039.399,1594205492.000,39.994107,-0.069368,126.000,73.000,14.0,1.6,10,5
1040.389,1594205493.000,39.994106,-0.069361,125.000,69.500,14.0,0.9,10,5
1040.392,1594205493.000,39.994106,-0.069361,125.000,69.500,14.0,0.9,10,5
1041.386,1594205494.000,39.994106,-0.069352,125.000,71.600,15.0,0.7,10,5
1041.397,1594205494.000,39.994106,-0.069352,125.000,71.600,15.0,0.7,10,5
1042.359,1594205495.000,39.994096,-0.069354,124.000,81.800,15.0,0.7,10,5
1042.365,1594205495.000,39.994096,-0.069354,124.000,81.800,15.0,0.7,10,5
1043.323,1594205496.000,39.994093,-0.069334,125.000,93.700,16.0,1.5,10,5
1043.335,1594205496.000,39.994093,-0.069334,125.000,93.700,16.0,1.5,10,5
1044.365,1594205497.000,39.994079,-0.069333,125.000,117.700,16.0,0.8,10,5
1044.374,1594205497.000,39.994079,-0.069333,125.000,117.700,16.0,0.8,10,5
1045.373,1594205498.000,39.994063,-0.069334,124.000,149.700,16.0,1.6,10,5
1045.388,1594205498.000,39.994063,-0.069334,124.000,149.700,16.0,1.6,10,5
1046.324,1594205499.000,39.994045,-0.069336,124.000,173.400,16.0,1.4,10,5
1046.339,1594205499.000,39.994045,-0.069336,124.000,173.400,16.0,1.4,10,5
1047.352,1594205500.000,39.994035,-0.069336,123.000,189.800,17.0,0.8,10,5
1047.363,1594205500.000,39.994035,-0.069336,123.000,189.800,17.0,0.8,10,5
1048.328,1594205501.000,39.994024,-0.069340,123.000,210.300,18.0,1.2,9,5
1048.349,1594205501.000,39.994024,-0.069340,123.000,210.300,18.0,1.2,9,5
1049.335,1594205502.000,39.994012,-0.069348,122.000,225.700,19.0,0.8,10,5
1049.353,1594205502.000,39.994012,-0.069348,122.000,225.700,19.0,0.8,10,5
1050.353,1594205503.000,39.994007,-0.069352,122.000,243.800,18.0,0.6,10,5
1050.360,1594205503.000,39.994007,-0.069352,122.000,243.800,18.0,0.6,10,5
1051.356,1594205504.000,39.994009,-0.069352,122.000,264.200,19.0,0.5,10,5
1051.371,1594205504.000,39.994009,-0.069352,122.000,264.200,19.0,0.5,10,5
1052.320,1594205505.000,39.994015,-0.069376,122.000,290.800,18.0,1.3,10,5
1052.361,1594205505.000,39.994015,-0.069376,122.000,290.800,18.0,1.3,10,5
1053.358,1594205506.000,39.994019,-0.069387,122.000,308.900,19.0,1.1,10,5
1053.368,1594205506.000,39.994019,-0.069387,122.000,308.900,19.0,1.1,10,5
1054.338,1594205507.000,39.994029,-0.069388,122.000,327.300,16.0,1.0,10,5
1054.377,1594205507.000,39.994029,-0.069388,122.000,327.300,16.0,1.0,10,5
1055.356,1594205508.000,39.994052,-0.069377,123.000,351.500,16.0,1.5,10,5
1055.383,1594205508.000,39.994052,-0.069377,123.000,351.500,16.0,1.5,10,5
1056.344,1594205509.000,39.994065,-0.069380,123.000,349.000,19.0,1.4,10,5
1056.366,1594205509.000,39.994065,-0.069380,123.000,349.000,19.0,1.4,10,5
1057.341,1594205510.000,39.994074,-0.069390,123.000,351.800,16.0,1.3,10,5
1057.351,1594205510.000,39.994074,-0.069390,123.000,351.800,16.0,1.3,10,5
1058.326,1594205511.000,39.994095,-0.069388,123.000,358.500,19.0,1.3,10,5
1058.340,1594205511.000,39.994095,-0.069388,123.000,358.500,19.0,1.3,10,5
1059.367,1594205512.000,39.994098,-0.069397,123.000,5.400,21.0,0.8,10,5
1059.384,1594205512.000,39.994098,-0.069397,123.000,5.400,21.0,0.8,10,5
1060.352,1594205513.000,39.994097,-0.069411,123.000,2.000,19.0,0.9,11,5
1060.361,1594205513.000,39.994097,-0.069411,123.000,2.000,19.0,0.9,11,5
1061.342,1594205514.000,39.994092,-0.069427,123.000,344.900,19.0,1.0,11,5
1061.359,1594205514.000,39.994092,-0.069427,123.000,344.900,19.0,1.0,11,5
1062.411,1594205515.000,39.994092,-0.069450,123.000,333.300,20.0,0.9,11,5
1062.420,1594205515.000,39.994092,-0.069450,123.000,333.300,20.0,0.9,11,5
1063.447,1594205516.000,39.994098,-0.069461,123.000,341.000,21.0,0.9,12,5
1063.459,1594205516.000,39.994098,-0.069461,123.000,341.000,21.0,0.9,12,5
1064.448,1594205517.000,39.994110,-0.069460,123.000,16.000,21.0,1.5,12,5
1064.454,1594205517.000,39.994110,-0.069460,123.000,16.000,21.0,1.5,12,5
1065.340,1594205518.000,39.994106,-0.069456,122.000,33.000,20.0,1.5,12,5
1065.343,1594205518.000,39.994106,-0.069456,122.000,33.000,20.0,1.5,12,5
1066.449,1594205519.000,39.994099,-0.069474,123.000,42.000,19.0,1.0,10,4
1066.461,1594205519.000,39.994099,-0.069474,123.000,42.000,19.0,1.0,10,4
1067.450,1594205520.000,39.994107,-0.069483,124.000,26.600,20.0,1.9,10,6
1067.455,1594205520.000,39.994107,-0.069483,124.000,26.600,20.0,1.9,10,6
1068.475,1594205521.000,39.994119,-0.069478,124.000,26.700,21.0,1.6,10,6
1068.482,1594205521.000,39.994119,-0.069478,124.000,26.700,21.0,1.6,10,6
1069.452,1594205522.000,39.994123,-0.069474,124.000,26.700,22.0,1.3,10,6
1069.474,1594205522.000,39.994123,-0.069474,124.000,26.700,22.0,1.3,10,6
1070.439,1594205523.000,39.994112,-0.069462,124.000,29.600,22.0,0.4,10,6
1070.446,1594205523.000,39.994112,-0.069462,124.000,29.600,22.0,0.4,10,6
1071.440,1594205524.000,39.994086,-0.069457,124.000,73.100,22.0,0.9,10,6
1071.448,1594205524.000,39.994086,-0.069457,124.000,73.100,22.0,0.9,10,6
1072.458,1594205525.000,39.994083,-0.069453,124.000,92.500,22.0,0.5,10,6
1072.463,1594205525.000,39.994083,-0.069453,124.000,92.500,22.0,0.5,10,6
1073.431,1594205526.000,39.994082,-0.069438,124.000,105.000,24.0,0.7,10,6
1073.440,1594205526.000,39.994082,-0.069438,124.000,105.000,24.0,0.7,10,6
1074.440,1594205527.000,39.994087,-0.069424,123.000,117.000,22.0,0.3,10,6
1074.447,1594205527.000,39.994087,-0.069424,123.000,117.000,22.0,0.3,10,6
1075.409,1594205528.000,39.994084,-0.069413,124.000,136.200,22.0,0.6,10,6
1075.415,1594205528.000,39.994084,-0.069413,124.000,136.200,22.0,0.6,10,6
1076.419,1594205529.000,39.994084,-0.069402,124.000,159.100,25.0,0.9,10,6
1076.429,1594205529.000,39.994084,-0.069402,124.000,159.100,25.0,0.9,10,6
1077.426,1594205530.000,39.994074,-0.069403,124.000,171.300,26.0,0.7,10,6
1077.447,1594205530.000,39.994074,-0.069403,124.000,171.300,26.0,0.7,10,6
1078.414,1594205531.000,39.994078,-0.069403,124.000,159.400,26.0,0.2,10,5
1078.420,1594205531.000,39.994078,-0.069403,124.000,159.400,26.0,0.2,10,5
1079.417,1594205532.000,39.994072,-0.069402,124.000,167.200,28.0,0.2,9,5
1079.429,1594205532.000,39.994072,-0.069402,124.000,167.200,28.0,0.2,9,5
1080.411,1594205533.000,39.994064,-0.069403,124.000,174.900,31.0,0.5,9,5
1080.422,1594205533.000,39.994064,-0.069403,124.000,174.900,31.0,0.5,9,5
1081.405,1594205534.000,39.994083,-0.069369,124.000,182.600,29.0,0.4,9,4
1081.447,1594205534.000,39.994083,-0.069369,124.000,182.600,29.0,0.4,9,4
1083.441,1594205536.000,39.994108,-0.069375,125.000,241.500,33.0,0.5,9,6
1083.463,1594205536.000,39.994108,-0.069375,125.000,241.500,33.0,0.5,9,6
1084.420,1594205537.000,39.994090,-0.069359,124.000,270.300,30.0,0.6,9,4
1084.429,1594205537.000,39.994090,-0.069359,124.000,270.300,30.0,0.6,9,4
1085.427,1594205538.000,39.994104,-0.069361,124.000,321.800,33.0,1.5,10,4
1085.431,1594205538.000,39.994104,-0.069361,124.000,321.800,33.0,1.5,10,4
1088.409,1594205541.000,39.994100,-0.069352,122.000,326.900,52.0,0.1,9,6
1088.415,1594205541.000,39.994100,-0.069352,122.000,326.900,52.0,0.1,9,6
1089.404,1594205542.000,39.994106,-0.069338,121.000,335.100,51.0,0.5,9,6
1089.428,1594205542.000,39.994106,-0.069338,121.000,335.100,51.0,0.5,9,6
1090.420,1594205543.000,39.994110,-0.069326,122.000,343.300,48.0,0.4,8,6
1090.441,1594205543.000,39.994110,-0.069326,122.000,343.300,48.0,0.4,8,6
1091.422,1594205544.000,39.994139,-0.069306,125.000,351.400,47.0,0.5,8,6
1091.430,1594205544.000,39.994139,-0.069306,125.000,351.400,47.0,0.5,8,6
1092.463,1594205545.000,39.994144,-0.069309,125.000,359.600,51.0,0.2,8,5
1092.470,1594205545.000,39.994144,-0.069309,125.000,359.600,51.0,0.2,8,5
1093.420,1594205546.000,39.994153,-0.069298,128.000,7.800,50.0,0.4,8,5
1093.438,1594205546.000,39.994153,-0.069298,128.000,7.800,50.0,0.4,8,5
1094.406,1594205547.000,39.994139,-0.069313,129.000,330.900,50.0,0.7,8,5
1094.426,1594205547.000,39.994139,-0.069313,129.000,330.900,50.0,0.7,8,5
1095.432,1594205548.000,39.994124,-0.069329,129.000,306.800,53.0,0.8,8,5
1095.447,1594205548.000,39.994124,-0.069329,129.000,306.800,53.0,0.8,8,5
1144.409,1594205597.000,39.993957,-0.069294,125.000,209.200,46.0,0.6,8,5
1144.419,1594205597.000,39.993957,-0.069294,125.000,209.200,46.0,0.6,8,5
1145.368,1594205598.000,39.993952,-0.069301,123.000,211.500,43.0,0.3,9,5
1145.386,1594205598.000,39.993952,-0.069301,123.000,211.500,43.0,0.3,9,5
1146.392,1594205599.000,39.993954,-0.069309,122.000,219.200,40.0,0.7,9,5
1146.400,1594205599.000,39.993954,-0.069309,122.000,219.200,40.0,0.7,9,5
1147.403,1594205600.000,39.993960,-0.069303,123.000,222.200,44.0,0.2,9,5
1147.411,1594205600.000,39.993960,-0.069303,123.000,222.200,44.0,0.2,9,5
1148.380,1594205601.000,39.993961,-0.069291,125.000,225.300,45.0,0.3,7,5
1148.388,1594205601.000,39.993961,-0.069291,125.000,225.300,45.0,0.3,7,5
1149.392,1594205602.000,39.993960,-0.069286,126.000,0.000,44.0,0.0,8,5
1149.401,1594205602.000,39.993960,-0.069286,126.000,0.000,44.0,0.0,8,5
1150.360,1594205603.000,39.994044,-0.069246,116.000,218.800,34.0,0.4,8,4
1150.387,1594205603.000,39.994044,-0.069246,116.000,218.800,34.0,0.4,8,4
1151.391,1594205604.000,39.994034,-0.069252,115.000,220.200,36.0,0.3,8,5
1151.411,1594205604.000,39.994034,-0.069252,115.000,220.200,36.0,0.3,8,5
1152.408,1594205605.000,39.994043,-0.069237,118.000,306.700,35.0,1.0,8,5
1152.420,1594205605.000,39.994043,-0.069237,118.000,306.700,35.0,1.0,8,5
1153.371,1594205606.000,39.994063,-0.069223,118.000,346.900,35.0,1.2,8,6
1153.387,1594205606.000,39.994063,-0.069223,118.000,346.900,35.0,1.2,8,6
1154.367,1594205607.000,39.994071,-0.069234,115.000,4.700,30.0,1.4,8,4
1154.377,1594205607.000,39.994071,-0.069234,115.000,4.700,30.0,1.4,8,4
1155.378,1594205608.000,39.994087,-0.069256,117.000,12.300,29.0,1.3,8,5
1155.401,1594205608.000,39.994087,-0.069256,117.000,12.300,29.0,1.3,8,5
1156.358,1594205609.000,39.994091,-0.069290,117.000,12.600,29.0,1.3,8,5
1156.377,1594205609.000,39.994091,-0.069290,117.000,12.600,29.0,1.3,8,5
1157.361,1594205610.000,39.994112,-0.069290,119.000,16.100,31.0,0.9,8,5
1157.382,1594205610.000,39.994112,-0.069290,119.000,16.100,31.0,0.9,8,5
1158.385,1594205611.000,39.994123,-0.069295,122.000,13.300,35.0,0.8,8,6
1158.411,1594205611.000,39.994123,-0.069295,122.000,13.300,35.0,0.8,8,6
1159.420,1594205612.000,39.994132,-0.069305,123.000,17.200,30.0,0.5,7,5
1159.432,1594205612.000,39.994132,-0.069305,123.000,17.200,30.0,0.5,7,5
1160.409,1594205613.000,39.994130,-0.069308,123.000,21.800,33.0,0.5,7,5
1160.425,1594205613.000,39.994130,-0.069308,123.000,21.800,33.0,0.5,7,5
1161.385,1594205614.000,39.994145,-0.069304,123.000,27.900,33.0,0.4,9,4
1161.392,1594205614.000,39.994145,-0.069304,123.000,27.900,33.0,0.4,9,4
1162.384,1594205615.000,39.994145,-0.069305,122.000,33.900,34.0,0.5,9,5
1162.413,1594205615.000,39.994145,-0.069305,122.000,33.900,34.0,0.5,9,5
1163.365,1594205616.000,39.994162,-0.069299,123.000,18.500,33.0,0.8,9,5
1163.378,1594205616.000,39.994162,-0.069299,123.000,18.500,33.0,0.8,9,5
1164.368,1594205617.000,39.994186,-0.069274,121.000,13.000,27.0,1.4,9,4
1164.389,1594205617.000,39.994186,-0.069274,121.000,13.000,27.0,1.4,9,4
1165.348,1594205618.000,39.994213,-0.069254,119.000,23.500,22.0,2.0,9,4
1165.391,1594205618.000,39.994213,-0.069254,119.000,23.500,22.0,2.0,9,4
1166.374,1594205619.000,39.994217,-0.069252,118.000,26.600,24.0,1.2,9,5
1166.382,1594205619.000,39.994217,-0.069252,118.000,26.600,24.0,1.2,9,5
1167.384,1594205620.000,39.994204,-0.069251,119.000,44.700,22.0,1.1,9,5
1167.397,1594205620.000,39.994204,-0.069251,119.000,44.700,22.0,1.1,9,5
1168.391,1594205621.000,39.994192,-0.069258,120.000,50.200,24.0,0.3,9,6
1168.417,1594205621.000,39.994192,-0.069258,120.000,50.200,24.0,0.3,9,6
1169.363,1594205622.000,39.994194,-0.069237,122.000,55.800,22.0,0.5,9,6
1169.369,1594205622.000,39.994194,-0.069237,122.000,55.800,22.0,0.5,9,6
1170.385,1594205623.000,39.994187,-0.069223,122.000,68.900,22.0,0.7,9,5
1170.395,1594205623.000,39.994187,-0.069223,122.000,68.900,22.0,0.7,9,5
1171.407,1594205624.000,39.994174,-0.069221,122.000,88.500,24.0,1.0,8,5
1171.431,1594205624.000,39.994174,-0.069221,122.000,88.500,24.0,1.0,8,5
1172.380,1594205625.000,39.994184,-0.069213,123.000,96.100,23.0,0.8,8,5
1172.388,1594205625.000,39.994184,-0.069213,123.000,96.100,23.0,0.8,8,5
1173.398,1594205626.000,39.994196,-0.069204,125.000,88.200,20.0,0.1,7,5
1173.408,1594205626.000,39.994196,-0.069204,125.000,88.200,20.0,0.1,7,5
1174.402,1594205627.000,39.994203,-0.069202,125.000,85.900,20.0,0.2,7,5
1174.408,1594205627.000,39.994203,-0.069202,125.000,85.900,20.0,0.2,7,5
1175.378,1594205628.000,39.994202,-0.069208,126.000,135.100,20.0,0.9,7,5
1175.389,1594205628.000,39.994202,-0.069208,126.000,135.100,20.0,0.9,7,5
1176.344,1594205629.000,39.994192,-0.069209,125.000,141.400,20.0,0.4,7,5
1176.354,1594205629.000,39.994192,-0.069209,125.000,141.400,20.0,0.4,7,5
1177.362,1594205630.000,39.994179,-0.069201,125.000,146.400,20.0,0.8,6,5
1177.402,1594205630.000,39.994179,-0.069201,125.000,146.400,20.0,0.8,6,5
1178.376,1594205631.000,39.994162,-0.069201,125.000,155.400,21.0,0.8,7,5
1178.396,1594205631.000,39.994162,-0.069201,125.000,155.400,21.0,0.8,7,5
1179.351,1594205632.000,39.994160,-0.069200,125.000,175.600,24.0,1.0,9,6
1179.361,1594205632.000,39.994160,-0.069200,125.000,175.600,24.0,1.0,9,6
1180.362,1594205633.000,39.994142,-0.069202,125.000,187.300,28.0,0.9,9,6
1180.373,1594205633.000,39.994142,-0.069202,125.000,187.300,28.0,0.9,9,6
1181.362,1594205634.000,39.994125,-0.069213,124.000,195.700,29.0,0.5,9,5
1181.374,1594205634.000,39.994125,-0.069213,124.000,195.700,29.0,0.5,9,5
1182.362,1594205635.000,39.994116,-0.069220,124.000,204.300,31.0,0.4,9,5
1182.367,1594205635.000,39.994116,-0.069220,124.000,204.300,31.0,0.4,9,5
1183.384,1594205636.000,39.994102,-0.069224,124.000,207.200,31.0,0.7,9,5
1183.393,1594205636.000,39.994102,-0.069224,124.000,207.200,31.0,0.7,9,5
1184.391,1594205637.000,39.994100,-0.069230,124.000,215.000,33.0,0.4,10,5
1184.398,1594205637.000,39.994100,-0.069230,124.000,215.000,33.0,0.4,10,5
1200.374,1594205653.000,39.994168,-0.069143,118.000,40.900,39.0,0.1,7,6
1200.385,1594205653.000,39.994168,-0.069143,118.000,40.900,39.0,0.1,7,6
